Reflectance,Transmittance
-0.0,0.0
5.134959763210187e-89,3.2774871790705806e-94
1.7052794058114466e-46,8.63355517733348e-49
1.6357472006477065e-32,7.6368121902927265e-34
1.2900212960471768e-25,1.80702924562955e-26
1.5573221145514248e-21,4.142486418028828e-22
7.514065524738155e-19,3.005527215216195e-19
5.828087458695007e-17,3.061654876480687e-17
1.4524319863103706e-15,9.2041058281379e-16
1.705247269622924e-14,1.2322583766182981e-14
1.185069437080174e-13,9.397071428367206e-14
5.632220690260524e-13,4.771135072528791e-13
2.0145102890207754e-12,1.7889172420569671e-12
5.792382285826019e-12,5.320103954391682e-12
1.4032245521084622e-11,1.3202899745336545e-11
2.9640842531339106e-11,2.837504278922897e-11
5.601640330868565e-11,5.4292011410380424e-11
9.659116031082792e-11,9.445139806395355e-11
1.5431130137046145e-10,1.5185433385212224e-10
2.3117583786091427e-10,2.2853262071186926e-10
3.279233023276012e-10,3.252325454321289e-10
4.439062564482221e-10,4.412934564518201e-10
5.771479536650288e-10,5.747119843009995e-10
7.245440347057943e-10,7.223516507742302e-10
8.821573311732009e-10,8.802439943161469e-10
1.0455529258516828e-09,1.0439276308566766e-09
1.2101286994847472e-09,1.208780603903445e-09
1.3714089117124223e-09,1.3703141189518442e-09
1.5252812988459022e-09,1.5244087871022956e-09
1.6681694949114865e-09,1.6674857344793203e-09
1.7971412611423547e-09,1.7966134500935385e-09
1.909958850793578e-09,1.9095569252661793e-09
2.005081144366954e-09,2.004778819601569e-09
2.081628494580413e-09,2.0814036090490517e-09
2.139321096923773e-09,2.139155501568199e-09
2.1784006715806856e-09,2.1782798562791884e-09
2.1995437264085728e-09,2.199456323188984e-09
2.203772978535078e-09,2.2037102346557257e-09
2.192371853087332e-09,2.1923271304176967e-09
2.1668054782746865e-09,2.1667738087227204e-09
2.1286503209793635e-09,2.1286280297276876e-09
2.079533577105727e-09,2.0795179742551793e-09
2.0210826389632796e-09,2.021071773962013e-09
1.9548843842867227e-09,1.9548768546442726e-09
1.882453636575355e-09,1.8824484415814956e-09
1.80520990048551e-09,1.80520633108023e-09
1.724461346596673e-09,1.7244589035656699e-09
1.6413949778993778e-09,1.6413933118190497e-09
1.5570719309912746e-09,1.5570707985940185e-09
1.4724269278553496e-09,1.4724261606154767e-09
1.3882709831259185e-09,1.388270464828632e-09
1.3052965746099781e-09,1.3052962254526656e-09
1.2240845924527958e-09,1.2240843578514068e-09
1.1451124883117787e-09,1.145112331067617e-09
1.068763145950109e-09,1.0687630407986936e-09
9.953340861510971e-10,9.953340159878442e-10
9.250467003847916e-10,9.250466536638485e-10
8.580552787362091e-10,8.58055247685585e-10
7.944556583581135e-10,7.944556377597898e-10
7.342933696867752e-10,7.342933560460169e-10
6.775711996611451e-10,6.775711906427156e-10
6.242561251486079e-10,6.242561191954807e-10
5.742855966931107e-10,5.742855927692178e-10
5.27573173539569e-10,5.275731709568451e-10
4.840135265794766e-10,4.840135248817897e-10
4.4348683725889553e-10,4.4348683614436995e-10
4.0586262836097373e-10,4.058626276301867e-10
3.7100306759469117e-10,3.7100306711608953e-10
3.3876578767657877e-10,3.387657873634632e-10
3.090062675828435e-10,3.0900626737821996e-10
2.8157981929696286e-10,2.815798191633651e-10
2.5634322302966577e-10,2.563432229425364e-10
2.33156051834559e-10,2.331560517777813e-10
2.1188172401030275e-10,2.1188172397336288e-10
1.9238831885717896e-10,1.9238831883314905e-10
1.7454918838347698e-10,1.745491883678581e-10
1.5824339454860784e-10,1.5824339453848199e-10
1.433559986653143e-10,1.4335599865874871e-10
1.2977822672575277e-10,1.2977822672147925e-10
1.174075317069064e-10,1.174075317041296e-10
1.0614757137571858e-10,1.061475713739699e-10
9.590811777241406e-11,9.590811777128587e-11
8.660491240545103e-11,8.660491240472524e-11
7.815947924810064e-11,7.815947924764802e-11
7.049890587514242e-11,7.049890587484366e-11
6.355560151584178e-11,6.355560151566235e-11
5.7267039411386894e-11,5.7267039411280537e-11
5.157548964284568e-11,5.15754896427769e-11
4.642774752334128e-11,4.642774752332034e-11
4.1774861715968043e-11,4.177486171594769e-11
3.757186543050937e-11,3.757186543050892e-11
3.3777513358155315e-11,3.377751335817871e-11
3.0354026408017566e-11,3.035402640802665e-11
2.726684580597929e-11,2.7266845805986495e-11
2.4484397689917235e-11,2.4484397689936286e-11
2.1977868979394322e-11,2.197786897942367e-11
1.9720995002320148e-11,1.9720995002342466e-11
1.7689859117571758e-11,1.7689859117591083e-11
1.5862704375335724e-11,1.5862704375355396e-11
1.4219757097851155e-11,1.421975709785814e-11
1.2743062138016487e-11,1.2743062138037932e-11
1.1416329476590954e-11,1.1416329476612943e-11
1.0224791744968452e-11,1.0224791744998457e-11
9.155072208344612e-12,9.155072208341423e-12
8.195062707005917e-12,8.195062707034025e-12
7.333811031643174e-12,7.333811031661921e-12
6.561417196537598e-12,6.561417196560307e-12
5.868938073333301e-12,5.868938073343702e-12
5.248299852583371e-12,5.2482998525896065e-12
4.692217811419683e-12,4.692217811438607e-12
4.194122881316427e-12,4.194122881335278e-12
3.748094528102853e-12,3.748094528116564e-12
3.3487994779092553e-12,3.3487994779399725e-12
2.9914358451317404e-12,2.991435845139621e-12
2.6716822420410716e-12,2.6716822420629753e-12
2.3856514744063837e-12,2.385651474425432e-12
2.129848450854391e-12,2.129848450860705e-12
1.901131958180327e-12,1.9011319582068194e-12
1.696679978418699e-12,1.6966799784385248e-12
1.5139582452472467e-12,1.5139582452571573e-12
1.350691760447955e-12,1.3506917604811888e-12
1.2048390108130229e-12,1.2048390108407716e-12
1.074568646439716e-12,1.0745686464420625e-12
9.582383999358923e-13,9.582383999460728e-13
8.543760436419081e-13,8.543760436572968e-13
7.616621984842755e-13,7.616621984945164e-13
6.789148238032216e-13,6.789148238213438e-13
6.050752317627177e-13,6.05075231777771e-13
5.391954832003475e-13,5.391954832236335e-13
4.804270346627799e-13,4.804270346758327e-13
4.2801051726936357e-13,4.2801051727866335e-13
3.812665392589764e-13,3.8126653926854226e-13
3.395874132292123e-13,3.395874132383829e-13
3.024297186453321e-13,3.0242971866334404e-13
2.6930761796277385e-13,2.6930761798170116e-13
2.397868525139189e-13,2.397868525248763e-13
2.1347935114145625e-13,2.134793511474261e-13
1.9003839088486072e-13,1.9003839089477967e-13
1.6915425474124745e-13,1.691542547459926e-13
1.5055033681659015e-13,1.5055033683036922e-13
1.3397965002878547e-13,1.3397965004186888e-13
1.192216955992265e-13,1.1922169561133615e-13
1.0607965796317273e-13,1.0607965798168391e-13
9.437789181798908e-14,9.437789182920582e-14
8.395967170259684e-14,8.395967171602155e-14
7.468517715249205e-14,7.46851771751489e-14
6.642968932688585e-14,6.642968934545234e-14
5.908197727207058e-14,5.908197728113309e-14
5.2542854281159095e-14,5.254285429572453e-14
4.672388681575018e-14,4.6723886834247156e-14
4.1546239975133166e-14,4.154623998526395e-14
3.693964542806462e-14,3.693964543284989e-14
3.284147906178916e-14,3.284147907219365e-14
2.91959367099994e-14,2.919593672200003e-14
2.5953297809712492e-14,2.595329783148351e-14
2.306926773767191e-14,2.3069267747154343e-14
2.050439044337524e-14,2.050439044454896e-14
1.8223524049818576e-14,1.822352405776352e-14
1.6195372763905745e-14,1.6195372766093512e-14
1.439206903915107e-14,1.4392069047226823e-14
1.2788800767774723e-14,1.2788800779186395e-14
1.1363478542317053e-14,1.1363478558382537e-14
1.0096439034479274e-14,1.0096439044665524e-14
8.970180218589538e-15,8.970180227964102e-15
7.969125351200349e-15,7.969125368678167e-15
7.079412576639756e-15,7.079412590179757e-15
6.2887071680594464e-15,6.28870718093793e-15
5.586034385849231e-15,5.586034395313235e-15
4.961630337175719e-15,4.961630342832196e-15
4.406809162609279e-15,4.406809160488109e-15
3.9138446367926096e-15,3.91384464443295e-15
3.475864731032493e-15,3.475864745745602e-15
3.086757672032415e-15,3.0867576850164408e-15
2.741088234656496e-15,2.7410882402940413e-15
2.434023227258341e-15,2.4340232341091807e-15
2.161265146277397e-15,2.161265156734307e-15
1.918993058082891e-15,1.9189930643129218e-15
1.7038100112019364e-15,1.7038100188719699e-15
1.5126961768441842e-15,1.5126961812532965e-15
1.342967184700948e-15,1.3429671911772565e-15
1.1922370002732413e-15,1.192237004127001e-15
1.0583849165337311e-15,1.0583849236625163e-15
9.395261620945407e-16,9.395261743921022e-16
8.339857715300001e-16,8.339857797929838e-16
7.402752798376218e-16,7.402752902167061e-16
6.57072084913986e-16,6.570720909063334e-16
5.832009914575754e-16,5.832009962746376e-16
5.176178702536721e-16,5.176178711669213e-16
4.593950701280538e-16,4.593950774413244e-16
4.0770848682549558e-16,4.0770849233826626e-16
3.618260227597019e-16,3.618260313397054e-16
3.2109736981878767e-16,3.210973794624047e-16
2.8494488997968235e-16,2.8494489919189006e-16
2.528555108038227e-16,2.52855518200067e-16
2.243735513846351e-16,2.243735658670556e-16
1.9909430836732346e-16,1.9909431171366102e-16
1.7665835806618985e-16,1.766583620052204e-16
1.567465382257984e-16,1.5674654204677423e-16
1.3907541625521163e-16,1.390754253554466e-16
1.2339332306628115e-16,1.2339332508192383e-16
1.0947678605068444e-16,1.0947679024087034e-16
9.712739598909032e-17,9.712739925124807e-17
8.616898314623736e-17,8.61689929704371e-17
7.64451510189184e-17,7.644515715713092e-17
6.781703663893644e-17,6.781704709803668e-17
6.016138871893804e-17,6.01613940824557e-17
5.336877266523277e-17,5.33687786836268e-17
4.7342051360577397e-17,4.734205913921926e-17
4.1995007421833465e-17,4.19950130422112e-17
3.725110163399556e-17,3.725110849371635e-17
3.304240781726092e-17,3.3042410182541015e-17
2.930862545566596e-17,2.930863037530049e-17
2.5996243593284666e-17,2.5996248130158304e-17
2.3057774331485298e-17,2.3057777023172806e-17
2.0451058920594494e-17,2.0451068892722773e-17
1.8138702227777204e-17,1.8138704731282963e-17
1.6087504207566063e-17,1.6087508888754158e-17
1.426800846104995e-17,1.4268009915993028e-17
1.2654071863511982e-17,1.2654076909971035e-17
1.122250231951102e-17,1.1222511467004091e-17
9.952724538650798e-18,9.952724497034722e-18
8.826467302986674e-18,8.826467580977525e-18
7.827528169417797e-18,7.827535080472287e-18
6.941538294409211e-18,6.94154086853993e-18
6.1557340555879726e-18,6.1557363726146295e-18
5.458799254319914e-18,5.458803288964501e-18
4.840696106603147e-18,4.8407029193413306e-18
4.292522673868925e-18,4.292527461437712e-18
3.806366176480252e-18,3.806372542463585e-18
3.3752238123540854e-18,3.3752250632979125e-18
2.992871349813571e-18,2.99287812573809e-18
2.653800613340293e-18,2.6538030596553848e-18
2.353110541180524e-18,2.3531141040710395e-18
2.0864626407379788e-18,2.086466871391228e-18
1.850003866718609e-18,1.8500108930786575e-18
1.6403274635802336e-18,1.6403304976696644e-18
1.4543950077834252e-18,1.4543969906055927e-18
1.2895231417915068e-18,1.2895250325455562e-18
1.1433245517825995e-18,1.1433275161292494e-18
1.0136931074849218e-18,1.013696790762633e-18
8.987465501919408e-19,8.987484200151132e-19
7.968246451148133e-19,7.968278963170391e-19
7.064553313353094e-19,7.064581460737319e-19
6.2632848035851145e-19,6.263288491898073e-19
5.552794758641557e-19,5.552843126261754e-19
4.922866359061175e-19,4.9228947833468105e-19
4.364377334332362e-19,4.364396600524182e-19
3.86919069463539e-19,3.869218967389585e-19
3.4301489273053066e-19,3.430196814307115e-19
3.0409145694091716e-19,3.0409415762309897e-19
2.6958137501601145e-19,2.695834373894314e-19
2.389842670937502e-19,2.389873350784159e-19
2.1185897617530328e-19,2.1186310209042385e-19
1.878101723206054e-19,1.8781350678417793e-19
1.664898732569134e-19,1.6649419998954243e-19
1.4759022822123933e-19,1.475918220917828e-19
1.3083478125814103e-19,1.3083669680661726e-19
1.159776793972356e-19,1.1598037480046627e-19
1.0280939274576017e-19,1.028124673126357e-19
9.113562558883662e-20,9.113668166480891e-20
8.07841265666482e-20,8.078626441763837e-20
7.160820263455713e-20,7.161317722332945e-20
6.347550674760727e-20,6.347922288855182e-20
5.626537047907562e-20,5.626865558611964e-20
4.9875158186437147e-20,4.9877231001944254e-20
4.420860292011363e-20,4.421023412355474e-20
3.918806243385231e-20,3.9189861200135334e-20
3.473359609492607e-20,3.4736184051221926e-20
3.0788680874531015e-20,3.0789292040988273e-20
2.7289725192156174e-20,2.729103561683618e-20
2.4187991751679655e-20,2.4189715753143153e-20
2.1440045426123626e-20,2.14416493734857e-20
1.900306813648843e-20,1.900533500285642e-20
1.6843012275244402e-20,1.6846059949834298e-20
1.4929523021705224e-20,1.493156786741738e-20
1.3231722663576804e-20,1.3234559609950779e-20
1.1727532069195276e-20,1.172930429950051e-20
1.0395123500924398e-20,1.0396593925201473e-20
9.212937189218957e-21,9.213358825263508e-21
8.165216817385398e-21,8.16750581013197e-21
7.237402020655563e-21,7.2404070648616e-21
6.413670925914484e-21,6.4160621516400826e-21
5.684226492310851e-21,5.688268314874627e-21
5.038676285683858e-21,5.041516268254575e-21
4.464869052457933e-21,4.467171654043028e-21
3.957832826534997e-21,3.960488878290417e-21
3.507079168165345e-21,3.508530884213731e-21
3.1077090456614573e-21,3.1099887955546512e-21
2.7553315912350605e-21,2.7565905592186146e-21
2.4398860590855023e-21,2.4433453244433506e-21
2.163709625819137e-21,2.166374296641004e-21
1.9175188812589405e-21,1.917978298225523e-21
1.6994417265335336e-21,1.7010338934141453e-21
1.5053586707530387e-21,1.5061444242465124e-21
1.3338339405429661e-21,1.3359429499954063e-21
1.1825864862167597e-21,1.1836193417554158e-21
1.0484466356895553e-21,1.0477374399543567e-21
9.28724444972787e-22,9.306206176102073e-22
8.229112807119391e-22,8.229048203946035e-22
7.282981205054844e-22,7.321167325988637e-22
6.46186385124333e-22,6.487691488747191e-22
5.722870800158662e-22,5.742726211127651e-22
5.068024378296906e-22,5.0830991962561235e-22
4.495323242512634e-22,4.504929028621249e-22
3.977061073766319e-22,3.9858642419987983e-22
3.522387799690051e-22,3.5452212973489225e-22
3.1169781916972937e-22,3.1429030653682534e-22
2.7644028503132292e-22,2.7721429514545794e-22
2.449294798280424e-22,2.470665409641052e-22
2.169007306015525e-22,2.185649253163866e-22
1.924739502259004e-22,1.9368977297018008e-22
1.6950501007422821e-22,1.7155996037840605e-22
1.513327097916701e-22,1.5180161014834644e-22
1.3346780833798122e-22,1.3557137541087708e-22
1.1738661564535605e-22,1.2035565000378037e-22
1.041843597605532e-22,1.0654859356451e-22
9.233440993875787e-23,9.345583961464643e-23
8.187564844172124e-23,8.286064443872538e-23
7.238549081595616e-23,7.295234689260595e-23
6.376009128976188e-23,6.540372212266422e-23
5.616319591083414e-23,5.866971442947298e-23
4.968413350122503e-23,5.1109540211332205e-23
4.3962516269007674e-23,4.623212787842586e-23
3.9472766173729976e-23,4.0941491426586336e-23
3.433160152979157e-23,3.6508395603007316e-23
3.057115167313312e-23,3.158343041645079e-23
2.6750654556691366e-23,2.848017407577243e-23
2.3872574397851283e-23,2.5058628717002473e-23
2.0046837146676386e-23,2.2452780274731307e-23
1.818183618692868e-23,2.0366296935951703e-23
1.6656254796297215e-23,1.7440424904677067e-23
1.3826041475288856e-23,1.596035230313163e-23
1.2690028494789096e-23,1.4486746106627045e-23
1.0594829888876884e-23,1.2509686628049538e-23
9.246909858969067e-24,1.0560672127075984e-23
8.425889974662711e-24,9.629830085440957e-24
7.260537893377853e-24,8.931076333084986e-24
7.14756546985195e-24,7.474520145332785e-24
5.804932585797186e-24,7.423227011531577e-24
5.498166726381072e-24,5.7367204218514845e-24
4.0419405033264676e-24,6.236161356004485e-24
2.9854258604209974e-24,4.375565574603272e-24
2.734738984460581e-24,4.408179828237989e-24
2.4088975738527472e-24,3.570658789599556e-24
2.482889114410066e-24,3.617196230158445e-24
2.5752857937668298e-24,3.545453597708756e-24
2.0633744797128147e-24,2.993683896843441e-24
8.0196223527988565e-25,2.5751936863761736e-24
1.198941255266047e-24,1.7801300660456954e-24
3.88255631747006e-25,1.6709082377449588e-24
4.046082870398517e-25,1.5318658674563785e-24
3.098040788299226e-25,2.0011585199598527e-24
7.273560770486391e-25,8.499089014742277e-25
3.172578400487987e-25,8.821291765493563e-25
3.7085818240845287e-25,9.093397454819027e-25
-3.609899305322392e-25,8.973491948953343e-25
-1.8411968494770685e-25,5.881832264821932e-25
4.8758401841520934e-26,6.328922593663245e-26
3.7116104944016425e-26,1.0140897519136063e-24
-2.3617557026312898e-25,1.4930326366992626e-25
-4.0786433348848085e-25,6.527722084695846e-25
-1.0342130226961185e-24,-8.31362876449231e-26
-6.508070300060336e-25,3.078334500132112e-25
-7.195035536952466e-25,4.635032129823636e-25
-9.497761509648963e-25,6.63195677810596e-25
-8.11814662029143e-25,1.1878749214662373e-24
-4.065255887698304e-25,2.2410815156802375e-25
-8.070548848512773e-25,2.963342068393881e-25
-3.034773861924198e-25,1.3014993450010764e-25
-3.9157115623514514e-25,2.6818243999908384e-25
-4.71723268470008e-25,-2.7251179132253007e-26
-1.0773225554655436e-24,-3.7185471252389277e-26
-1.013622004638774e-24,-6.110149998174345e-26
-4.277697573397062e-25,8.39815514740721e-25
-3.7526776327380227e-25,5.3887216768733935e-25
-4.755910636040342e-25,2.7880726954457353e-25
-6.986576168017482e-25,-2.937852755930937e-26
-3.0376547084295463e-25,-1.1253735840640584e-25
-2.5153629623517076e-25,4.1552461616215384e-26
-9.056034545653256e-25,1.7284821052420993e-25
-8.080037411381285e-25,5.799596279202123e-26
-3.2206032784012397e-25,-3.059584230253522e-25
-7.449581043380892e-25,2.2827724722393683e-25
-4.627228962713742e-25,-1.659852334844944e-25
-5.26494833026997e-25,7.900858361638694e-27
-9.198903764120417e-25,-1.1111094472804664e-25
-9.769179197533972e-25,1.7486722167819139e-25
-3.771929562802223e-25,1.8167412220905797e-25
-6.248236610901772e-25,-2.7490065779668137e-25
-5.571810775941527e-25,1.5574272258294784e-25
-7.258806249285553e-25,-2.7371848858074355e-25
-6.075759875311183e-25,-1.7820812285892936e-25
-3.1748589497467954e-25,9.292733544873469e-26
-3.801543046770033e-25,2.2391288937074364e-25
-7.771208513947843e-25,-9.806125012349388e-26
-6.951524911972042e-25,2.5809917119594423e-25
-4.680214565484595e-25,-1.2687448697650497e-27
-5.877045291575494e-25,-2.166879828077543e-25
-5.531762262587819e-25,-1.0966334787763397e-27
-4.1255694198833404e-25,-2.2693960480523795e-25
-4.904953320254534e-25,-1.0723573728226976e-25
-6.414430464103576e-25,-4.007929355340044e-25
-8.735206651735677e-25,2.2609818592771284e-25
-8.86738518056037e-25,-1.4715986401353025e-25
-7.873070960787419e-25,2.510269593049691e-25
-3.8723962246779133e-25,-9.785342989147825e-26
-5.980505458172398e-25,4.684133642165298e-25
-5.64786066636321e-25,2.846012740985449e-25
-6.624550984271686e-25,-1.9408606500172409e-25
-8.228760905929871e-25,2.095673244573581e-25
-7.497053253419956e-25,4.353409264385412e-26
-3.835998770812551e-25,2.1034298380552572e-25
-5.59030973079093e-25,1.7815069429191032e-25
-6.77840728150717e-25,-1.4811308691792348e-25
-2.887892388574988e-25,-7.610966058025508e-26
-4.266421191856374e-25,-9.08538704794079e-26
-2.6832451497595357e-25,-6.11490365099813e-26
-5.57214311572662e-25,2.7866029215692296e-25
-5.828467123970145e-25,2.1109108344875995e-25
-5.543447917757726e-25,8.685775963693247e-26
-6.330547212188718e-25,1.1403552909491654e-25
-6.026221783241867e-25,1.2774929233714188e-25
-2.8106692991624155e-25,1.805058391608474e-25
-5.025560531381323e-25,-1.9597539064037154e-25
-6.891725719681008e-25,1.4076502003662602e-25
-6.191509228632191e-25,-2.5771446429301542e-25
-4.901976665680137e-25,2.2928963531436973e-25
-4.343882674016399e-25,5.751752655479475e-26
-3.4821813154661545e-25,1.5107480783269804e-25
-5.241371864906149e-25,-2.084357596525784e-27
-2.386889802558585e-25,-7.335119421308679e-26
-3.0981987687672584e-25,1.8010901486271297e-25
-3.090171742832214e-25,-2.385331603544604e-25
-7.27034497077653e-25,1.9492774947862722e-25
-4.670752878574479e-25,-2.961790002632246e-26
-2.3391570753221416e-25,8.148709321651131e-26
-1.9182762577408107e-25,-2.0299116155944236e-25
-4.230396879943066e-25,-4.848058463742637e-26
-2.2648093120342725e-25,7.894409198236945e-26
-3.625607273605313e-25,-1.703970612733779e-25
-4.203673452022489e-25,-8.801455330297885e-26
-1.5188397088656301e-25,4.9559574659948037e-26
-2.310042591257964e-25,2.707496244423532e-27
-4.353699039877928e-25,4.750167359578543e-26
